##TITLE=Propylbenzene
##JCAMP-DX=5.01  $$ Nicolet v. 521
##DATATYPE=INFRARED SPECTRUM
##ORIGIN=Lab
##OWNER=Nicolet
##LONGDATE=2015/11/02
##TIME=09:31:41
##DATA PROCESSING=
Ratio against background
Truncated
ElementMultiply or ElementDivide
##XUNITS=1/CM
##YUNITS=TRANSMITTANCE
##FIRSTX=399.212341
##LASTX=3999.837646
##FIRSTY=0.927614
##MAXX=3999.837646
##MINX=399.212341
##MAXY=1.013772
##MINY=0.267044
##XFACTOR=1.000000
##YFACTOR=1.000000E-008
##NPOINTS=1868
##DELTAX=1.928562
##XYDATA=(X++(Y..Y))
399.212 92761440 92175976 92036736 93199576 93877640 93106720 92751416 
412.712 93384552 93953384 93548464 92447416 92724040 93318872 94086552 
426.212 94756040 94321000 94057800 94755248 95361136 95576064 95656120 
439.712 96151560 96531016 96359680 96259136 96138472 95851000 95104848 
453.212 93763280 92466392 90766688 88501000 86325432 84965640 84198064 
466.712 83655016 84778736 87459528 90142592 91237704 91037200 89986752 
480.212 87856712 84553456 81057832 78504128 77247824 77214512 78415824 
493.712 80726200 83944520 87163584 89539760 91305656 92556568 93501648 
507.212 94207200 94849520 95734728 96528504 97107488 97318208 97305800 
520.712 97203992 96948416 96458120 95814664 95316528 95145976 95120344 
534.212 95056760 94854376 94807736 94845368 94700592 94716408 94778264 
547.712 94781896 94740832 94633840 94287008 93686424 92684872 91045776 
561.212 88123256 84317576 83113904 86699568 91204088 93807880 95034152 
574.712 95553272 95359640 94724232 93512688 91447272 88708648 87016904 
588.212 88239336 90927944 93039280 94160720 94489776 94427344 94270512 
601.712 94024096 93547168 92981936 92489368 91918064 91309496 90712696 
615.213 90210384 89766624 89295592 89156304 89730896 90699784 91815288 
628.713 92550512 92667072 92437712 91904064 91066344 90364696 90043216 
642.213 89900192 90010112 90302424 90652992 91104344 91538576 91944928 
655.713 92284408 92633952 93018896 93314768 93591272 93913816 94694656 
669.213 94843552 94492904 94431416 94218880 93667624 92665392 90957920 
682.713 88319488 84234032 78021952 69126248 57467184 43464048 30963262 
696.213 26704380 34544760 49383920 63030040 71712008 77055544 80795688 
709.713 83449920 84976976 85670456 85819856 85589424 85084464 84181608 
723.214 82749080 80928096 78629152 75667312 71711072 66703432 60584976 
736.714 54178228 49042696 46929436 48494480 53571988 60919372 68771376 
750.214 75669424 81194384 85397760 88543016 90748816 92382272 93708384 
763.714 94837024 95618688 96167664 96750496 97215248 97469808 97659696 
777.214 97802704 97923888 98061432 98143544 98210976 98255472 98262936 
790.714 98260032 98192784 98049296 97912408 97742064 97509992 97343408 
804.214 97193408 97080432 96981120 96845504 96719384 96428704 95713872 
817.714 94809136 94564872 95474448 96707160 97478144 97868048 98062968 
831.214 98099624 98079720 98011032 97852440 97722040 97657240 97679928 
844.715 97804160 97996952 98137320 98171296 98158664 98055312 97865208 
858.215 97634464 97441192 97479752 97642720 97773744 97789536 97772888 
871.715 97805696 97763920 97680888 97596616 97390048 97069184 96589992 
885.215 95988568 95468496 95385864 95836928 96482712 96958200 97211120 
898.715 97316056 97312280 97048040 96442656 95592144 94860024 94920056 
912.215 95781200 96796080 97530296 98020816 98357600 98529392 98617000 
925.715 98649096 98654024 98753616 98843072 98874088 98917240 98997080 
939.215 98982456 98948320 98923472 98926584 98918304 98865432 98777752 
952.716 98727288 98680648 98591256 98492168 98416176 98365992 98341792 
966.216 98333624 98352936 98371032 98375304 98383216 98360760 98272480 
979.716 98211968 98237712 98329224 98381136 98435768 98466488 98440672 
993.216 98437528 98426096 98392104 98253312 98036400 97997200 98127528 
1006.716 98282016 98347456 98279280 98184080 98052064 97873008 97611712 
1020.216 97170216 96437072 95053376 93244488 92184616 92003192 92602376 
1033.716 93879992 94961256 95869168 96594144 96927784 96733024 95995592 
1047.216 94964272 94401632 94740664 95596128 96374624 96936680 97327984 
1060.717 97542392 97693944 97744176 97691648 97548728 97298976 96996344 
1074.217 96689080 96622688 96817136 97011064 97040464 96791552 96190144 
1087.717 95265328 93869224 92115992 90897024 91308608 93005120 94717152 
1101.217 95812304 96385608 96581216 96426624 96105408 95976576 96367888 
1114.717 97144272 97842088 98309024 98582664 98748592 98804144 98851528 
1128.217 98926368 98954896 98964896 98980360 98982864 98984872 98954136 
1141.717 98922848 98878088 98788872 98672560 98540784 98327792 98081416 
1155.217 97933936 98030240 98238440 98405808 98493288 98531688 98540320 
1168.718 98511296 98401464 98197000 97891032 97541768 97459592 97748976 
1182.218 98045432 98208448 98307784 98393896 98419864 98405120 98409816 
1195.718 98383800 98277040 98126024 98004728 97982200 98065200 98132320 
1209.218 98183400 98298720 98439688 98574664 98657816 98720472 98778512 
1222.718 98822960 98819968 98831848 98858040 98855424 98813664 98748648 
1236.218 98702480 98661592 98594592 98511752 98459600 98457168 98457760 
1249.718 98418536 98300568 98131328 97927944 97749016 97758328 97974808 
1263.218 98211320 98390760 98473712 98487224 98451832 98365040 98243184 
1276.719 98112200 98032904 98020720 98072472 98146200 98192728 98176136 
1290.219 98112488 98114048 98154112 98197808 98266944 98326264 98296232 
1303.719 98271656 98226192 98147464 98085720 98037856 97990816 97946144 
1317.219 97902640 97821736 97693672 97611080 97526232 97353136 97162296 
1330.719 97047800 96956760 96753088 96174472 95036024 94062304 94613640 
1344.219 96033328 97017448 97457816 97653736 97741728 97801984 97863112 
1357.719 97934880 97977128 97948488 97828408 97657136 97448528 97151576 
1371.219 96598472 95508880 93380064 90956080 90254488 92069888 94313720 
1384.719 95760776 96606968 97095024 97373240 97571792 97818336 97894272 
1398.220 97932320 97926984 97929504 97967112 97910888 97758456 97654568 
1411.720 97595624 97568640 97481992 97398392 97334032 97170408 96917960 
1425.220 96532240 96214928 95889344 95505880 95045376 94619760 93851728 
1438.720 92819904 91623928 90088672 88121904 85744112 81764568 75921080 
1452.220 72368744 75739544 81782040 85902584 86844152 86645232 86239808 
1465.720 86849328 88728416 90762560 92596344 94160528 94997232 95428064 
1479.220 95628184 95774864 95635456 95000008 93913176 92242360 88858944 
1492.720 82794880 76061552 76620792 85761032 92655672 95408832 96691080 
1506.221 97807232 98414840 98377064 98431056 98402032 98583584 98664608 
1519.721 98671672 98754976 98976240 99193688 99094952 98814712 98620136 
1533.221 98467776 98248176 98199912 98379088 98698616 98886848 98968264 
1546.721 98800584 98718592 98694920 98707984 98696208 98871696 99359664 
1560.221 99610016 99261544 99082360 98924256 98802544 98719816 98526712 
1573.721 98483104 98668224 98482560 98000872 97235312 96435696 96286792 
1587.221 96550160 96761776 96995392 97157800 97062288 96459696 95317040 
1600.721 93319816 90841784 90201672 92585696 95420672 97129744 97987520 
1614.222 98350944 98532000 98704664 98891192 99107032 99179008 99017872 
1627.722 98957736 98879672 98862296 98990128 99243656 99301464 99255056 
1641.222 99110552 98957880 98946560 99062296 98796352 98798664 99283704 
1654.722 99341568 99047944 98948112 98921216 98970448 98926984 98972856 
1668.222 99173296 99531256 99535912 99404616 99145192 98977424 99044704 
1681.722 99125144 99325536 99450792 99377040 99309224 99274888 99158496 
1695.222 99108872 99034048 99321912 99721264 99638672 99611680 99489488 
1708.722 99220384 99067864 99027104 99170072 99476976 99716544 99519688 
1722.223 99310792 99194840 99050672 98873344 98798512 98838408 99202640 
1735.723 99446040 99341736 99233744 99064952 98820112 98578168 98428280 
1749.223 98441984 98670944 98731584 98813984 99011712 99110312 99163056 
1762.723 99187040 99114896 99125680 99165136 99240216 99212264 99062336 
1776.223 99010424 99076016 99123944 99084456 99060864 99028528 99035240 
1789.723 98954632 98919768 98679176 98302632 97967312 97761320 97723128 
1803.223 97878496 97970928 98220592 98483648 98669680 98694144 98650304 
1816.723 98558024 98470064 98476448 98549656 98644376 98720056 98941408 
1830.224 99103216 99113512 99053608 99018768 98996888 99011328 99025072 
1843.724 98903408 98935408 99023328 98844248 98760864 98811168 98882560 
1857.224 98761384 98643200 98717120 98667736 98428520 98280728 98165360 
1870.724 97973744 97927280 98099360 98252752 98351688 98376496 98401936 
1884.224 98457016 98425464 98501472 98648768 98638056 98627528 98675312 
1897.724 98694576 98830648 98961536 98995776 99022144 99036808 98995664 
1911.224 98988888 98999528 98929488 98810128 98651216 98806512 98982744 
1924.724 98922776 98762864 98622800 98580712 98115296 97678552 97434824 
1938.224 97339480 97166608 97329920 97630848 97657280 97644320 97708280 
1951.725 97519016 97442800 97665632 98091728 98377824 98608368 98320880 
1965.225 98052896 98630744 99146464 98914072 98594112 98709440 99640976 
1978.725 100137792 100283608 100015496 99447344 99174112 99429552 99903560 
1992.225 100018784 99958336 99412880 99290984 99160808 99007592 99334400 
2005.725 99796992 99818312 99191736 99368160 99242728 98477928 98826664 
2019.225 99763976 99970728 99441280 99280016 99599408 99804864 99971144 
2032.725 100362400 100553360 100575888 101210768 101377192 101229632 
2044.297 101263488 101144256 100620120 100194568 100476776 100529952 
2055.868 100472912 100548704 100528584 100503264 100517784 100344504 
2067.439 100146496 99870304 99899304 100044504 99906304 99828408 99735352 
2080.938 99760456 99813312 99678616 99645992 99473648 99353488 99529248 
2094.437 99632328 99829976 99963952 99879872 99681568 99587920 99649824 
2107.937 99714384 99457336 99333128 99209336 99028760 98997600 98942784 
2121.436 99042432 98989088 98949640 98783128 98567936 98278112 97962144 
2134.935 98199968 98216744 97900376 97729928 97629936 97823824 98323200 
2148.434 98593912 98423704 98094776 98241424 98951432 99386768 98570592 
2161.934 98390728 98826464 98765304 99455904 100407320 100760504 100530336 
2175.433 100418680 100611112 100600816 100615624 100146976 99823656 99979728 
2188.932 100127960 100060976 99906920 100267088 100499576 100353176 
2200.503 100347200 100581232 100439192 100118104 99859864 99953912 100347016 
2214.002 100503800 100302824 100171112 100194296 100374600 100629680 
2225.573 100603440 100388680 100246520 100163568 100468600 100590312 
2237.144 100347880 100537192 100736552 100441704 100200720 100343576 
2248.715 100553720 100495080 100156784 100093224 100329352 100469552 
2260.285 100466552 100371336 100334848 100469952 100667808 100530584 
2271.856 100416696 100373864 100397264 100539984 100757856 100770656 
2283.427 100573752 100435304 100370096 100336248 100246416 100177784 
2294.998 100175544 100142904 100235032 100302376 100325984 100379648 
2306.569 100425672 100394184 100240008 100121512 100131944 100202624 
2318.139 100316528 100408720 100507400 100577720 100638304 100720640 
2329.710 100731600 100505912 100299000 100276800 100329360 100395512 
2341.281 100402984 100365472 100219416 99933912 99815816 99981968 100205744 
2354.780 100313496 100488304 100695216 100953360 101167872 100961496 
2366.351 100611024 100490144 100499848 100536048 100495488 100329480 
2377.922 100189608 100047808 99890424 99692744 99526656 99395216 99294704 
2391.421 99237344 99144512 99108448 99092960 99139624 99196088 99170480 
2404.920 99073656 99110992 99204552 99229088 99189664 99139536 99182504 
2418.420 99240240 99258768 99258936 99250240 99281272 99347640 99386296 
2431.919 99353320 99412824 99418272 99386216 99393048 99415928 99449984 
2445.418 99502408 99530112 99466616 99423592 99490512 99468592 99373144 
2458.917 99355576 99372192 99374456 99404360 99346624 99307000 99412400 
2472.417 99469616 99465880 99485464 99489704 99480504 99557472 99541416 
2485.916 99461136 99463344 99405640 99329832 99453584 99512736 99424808 
2499.415 99364128 99403416 99584968 99541736 99477448 99555400 99614512 
2512.915 99629576 99587568 99607792 99636440 99601200 99573232 99610640 
2526.414 99714432 99683032 99651128 99602736 99542504 99553720 99595136 
2539.913 99693800 99678264 99603368 99607768 99622320 99682168 99684824 
2553.412 99611768 99589824 99623040 99709488 99782568 99721632 99724624 
2566.912 99767920 99788072 99850592 99853920 99822136 99856496 99822520 
2580.411 99742664 99793064 99863816 99892456 99878624 99840904 99894160 
2593.910 99948320 99969136 99984288 99944096 99900208 99932752 99947984 
2607.409 99948000 99937192 99883808 99871680 99899384 99916288 99934984 
2620.909 99925240 99959896 100000448 99997128 99975168 99966984 99958160 
2634.408 99917024 99890968 99908352 99948912 99948872 99938432 99904752 
2647.907 99874040 99806376 99760008 99712168 99666608 99649136 99570520 
2661.406 99491680 99450312 99385000 99292920 99219696 99168648 99166456 
2674.906 99187832 99202520 99235864 99246096 99213672 99253264 99293400 
2688.405 99292880 99316288 99360600 99349608 99323880 99289648 99299264 
2701.904 99304608 99272176 99232896 99190512 99174248 99152256 99144064 
2715.404 99139504 99126032 99128896 99115312 99085560 99049688 99031984 
2728.903 99003816 99001192 99003944 98964792 98926944 98966840 99038264 
2742.402 99095848 99161008 99197128 99224920 99228024 99212064 99215320 
2755.901 99232208 99241640 99220480 99195360 99186704 99198328 99156192 
2769.401 99110440 99082096 99054648 99044144 98977008 98902912 98874672 
2782.900 98822848 98767920 98753264 98730824 98690040 98680648 98690240 
2796.399 98691512 98642512 98579200 98525712 98508384 98495608 98456592 
2809.898 98387376 98278664 98193232 98102728 97990960 97865496 97742640 
2823.398 97586960 97378720 97217440 97014832 96772152 96509368 96175456 
2836.897 95782904 95375424 94879288 94271128 93628192 92916776 92100544 
2850.396 91293520 90601016 90008072 89432152 88739512 87940888 87246640 
2863.896 86834112 86649616 86151200 85174304 84609216 85591576 87876736 
2877.395 90143224 91687320 92554912 92922056 93014472 92952008 92740816 
2890.894 92464376 92075192 91679304 91328416 90956376 90557496 90130768 
2904.393 89648512 89119984 88411080 87563000 86593632 85537232 84446648 
2917.893 83355344 82226680 81074936 79993280 78971440 78020712 77533480 
2931.392 77744528 78756328 80497888 82458128 84264208 85708136 86542992 
2944.891 86776952 86452528 85458912 83730544 81563656 79328752 77565504 
2958.390 76849816 77275968 78429776 80008920 81925432 84211520 86714416 
2971.890 89098952 91140960 92810952 94095160 95041080 95769024 96336768 
2985.389 96737088 96979232 97115840 97116792 97033104 96914280 96711664 
2998.888 96494504 96240984 96149208 96234248 96314536 96267040 96079088 
3012.387 95738456 95229944 94533288 93498248 92005776 90137064 88213768 
3025.887 86945816 87005160 88413496 90536184 92534232 94047672 95101112 
3039.386 95810704 96315368 96639888 96832728 96922664 96814000 96632600 
3052.885 96406816 95983936 95367552 94535160 93608408 93083856 93331896 
3066.385 94244296 95305736 96128208 96578544 96759264 96781280 96651016 
3079.884 96179248 95543784 95065520 95178208 95956112 96922856 97601840 
3093.383 97995064 98275768 98435744 98494256 98477272 98391848 98322224 
3106.882 98300568 98404952 98653224 98925480 99040880 99036336 99042736 
3120.382 99030104 99102192 99210280 99293552 99336968 99357624 99356864 
3133.881 99370480 99397152 99405256 99405776 99409800 99411064 99400584 
3147.380 99394400 99383952 99355248 99345136 99339696 99347728 99355072 
3160.879 99381880 99408200 99367464 99390208 99426160 99432832 99411352 
3174.379 99383016 99307520 99330112 99464032 99513736 99483888 99491304 
3187.878 99464416 99467776 99469936 99512800 99528024 99507592 99484304 
3201.377 99454536 99503872 99560704 99552192 99519336 99537376 99536232 
3214.876 99518048 99518072 99561120 99537400 99461304 99430696 99505272 
3228.376 99605480 99606032 99622096 99604920 99532896 99502056 99533640 
3241.875 99571936 99545568 99561704 99644392 99618576 99551512 99490312 
3255.374 99456560 99512360 99601816 99571544 99523400 99522112 99611376 
3268.874 99646664 99567608 99533776 99559752 99583632 99530376 99500880 
3282.373 99563424 99618528 99621568 99643120 99650176 99584680 99591080 
3295.872 99537720 99500216 99585112 99578608 99534472 99535824 99529520 
3309.371 99551104 99605784 99635384 99631568 99668304 99618216 99498496 
3322.871 99509208 99553696 99548952 99538160 99488496 99443528 99471576 
3336.370 99582816 99598648 99551168 99538168 99559888 99616056 99563120 
3349.869 99473568 99539608 99601896 99597704 99537168 99490520 99493816 
3363.368 99530288 99507232 99505048 99567776 99606864 99556920 99568624 
3376.868 99575184 99503960 99473240 99514248 99517872 99502536 99523904 
3390.367 99557152 99559584 99577224 99586000 99537400 99457256 99486968 
3403.866 99578464 99611416 99569480 99597648 99637016 99577704 99518824 
3417.365 99519664 99508816 99473272 99497000 99561560 99513232 99454248 
3430.865 99457624 99402272 99426168 99495512 99535632 99562008 99521464 
3444.364 99484784 99550248 99563408 99540264 99445736 99368896 99340208 
3457.863 99405800 99396336 99318280 99336088 99468344 99546384 99525904 
3471.363 99464600 99464424 99423480 99398736 99413832 99442768 99389040 
3484.862 99398192 99444184 99463192 99437528 99422992 99456328 99322992 
3498.361 99255800 99386328 99440856 99409800 99442656 99500296 99542736 
3511.860 99547296 99518584 99355720 99310536 99366832 99339832 99347712 
3525.360 99383488 99489040 99562392 99519848 99458048 99476680 99514160 
3538.859 99393696 99218496 99228560 99322176 99371840 99397464 99420536 
3552.358 99532104 99555640 99509312 99520712 99426248 99360872 99364320 
3565.857 99496416 99609872 99622744 99668464 99621616 99508728 99465912 
3579.357 99393960 99241368 99372680 99572984 99580672 99501928 99432880 
3592.856 99443424 99432448 99409040 99382840 99253328 99193032 99343560 
3606.355 99398872 99288088 99265960 99584240 99791576 99808632 99851728 
3619.854 99702888 99345984 99202976 99279280 99428672 99510376 99849536 
3633.354 100017560 99918024 99786064 99764280 99614152 99309248 99341896 
3646.853 99661312 99790176 99841976 99741840 99732936 99517208 99564328 
3660.352 99609392 99444616 99402200 99520488 99567008 99608216 99740464 
3673.852 100334888 100477192 100094136 99791944 99599912 99394976 99482304 
3687.351 99792080 99846448 100113640 100415216 100478640 100161640 99780968 
3700.850 99644752 99415856 99274256 99545056 99837120 100068736 99835520 
3714.349 99712728 99782112 99857592 99908696 99671736 99243528 99071312 
3727.849 99486336 99655680 99601568 99794216 100184944 99956896 99793800 
3741.348 99853368 100353408 100176464 100117560 100422224 100873232 
3752.919 100932352 100828760 100594728 100382304 100217664 100220696 
3764.490 100278896 100241264 100270256 100212600 100009472 99811376 99738912 
3777.989 99662624 99573544 99453336 99530528 99726912 99723672 99569584 
3791.488 99669824 99451560 99319544 99333120 99410792 99642792 99777672 
3804.987 99879528 99873312 99643720 99561664 99429104 99339696 99513752 
3818.487 99916800 100289560 100339488 100235056 100119872 99723856 99268816 
3831.986 99301264 99202848 99423968 100209320 100430704 100239440 99943152 
3845.485 99629440 99407424 99267872 99266040 99733312 100213152 100196624 
3858.984 99988136 99960864 99762288 99707416 99507656 99828464 100325688 
3872.484 100424488 100187136 99888912 99536584 99515144 99518520 99661760 
3885.983 99799328 99941512 100013640 99929600 99676208 99608160 99604224 
3899.482 99710672 99978432 100160648 100107792 100023336 99955752 99688840 
3912.981 99365264 99510104 99793400 99862040 99825072 99789920 99758840 
3926.481 99632632 99489952 99426040 99498456 99634040 99672208 99646304 
3939.980 99641120 99692824 99679232 99615112 99663360 99700344 99672096 
3953.479 99618112 99512512 99456904 99548296 99513000 99444392 99465088 
3966.979 99549992 99580888 99631992 99676112 99641136 99500368 99402544 
3980.478 99463696 99487672 99520968 99618072 99605144 99527096 99524224 
3993.977 99443368 99366624 99385912 99373184 
##END=
